#Freq       VP(4)      VP(6)     
 10.       -90.175     174.83    
 10.233    -90.179     174.71    
 10.471    -90.183     174.58    
 10.715    -90.187     174.46    
 10.965    -90.192     174.33    
 11.22     -90.196     174.2     
 11.482    -90.201     174.07    
 11.749    -90.205     173.93    
 12.023    -90.21      173.79    
 12.303    -90.215     173.64    
 12.589    -90.22      173.5     
 12.882    -90.225     173.35    
 13.183    -90.231     173.19    
 13.49     -90.236     173.04    
 13.804    -90.241     172.88    
 14.125    -90.247     172.71    
 14.454    -90.253     172.54    
 14.791    -90.259     172.37    
 15.136    -90.265     172.2     
 15.488    -90.271     172.02    
 15.849    -90.277     171.83    
 16.218    -90.284     171.65    
 16.596    -90.29      171.45    
 16.982    -90.297     171.26    
 17.378    -90.304     171.06    
 17.783    -90.311     170.85    
 18.197    -90.318     170.64    
 18.621    -90.326     170.43    
 19.055    -90.333     170.21    
 19.498    -90.341     169.99    
 19.953    -90.349     169.76    
 20.417    -90.357     169.53    
 20.893    -90.365     169.29    
 21.38     -90.374     169.04    
 21.878    -90.383     168.8     
 22.387    -90.392     168.54    
 22.909    -90.401     168.28    
 23.442    -90.41      168.02    
 23.988    -90.42      167.75    
 24.547    -90.429     167.47    
 25.119    -90.439     167.19    
 25.704    -90.45      166.9     
 26.303    -90.46      166.6     
 26.915    -90.471     166.3     
 27.542    -90.482     166.      
 28.184    -90.493     165.68    
 28.84     -90.504     165.37    
 29.512    -90.516     165.04    
 30.2      -90.528     164.71    
 30.903    -90.54      164.37    
 31.623    -90.553     164.02    
 32.359    -90.566     163.67    
 33.113    -90.579     163.31    
 33.884    -90.593     162.94    
 34.674    -90.606     162.57    
 35.481    -90.621     162.19    
 36.308    -90.635     161.8     
 37.154    -90.65      161.41    
 38.019    -90.665     161.      
 38.905    -90.68      160.6     
 39.811    -90.696     160.18    
 40.738    -90.712     159.75    
 41.687    -90.729     159.32    
 42.658    -90.746     158.88    
 43.652    -90.763     158.43    
 44.668    -90.781     157.98    
 45.709    -90.799     157.52    
 46.774    -90.818     157.05    
 47.863    -90.837     156.57    
 48.978    -90.857     156.08    
 50.119    -90.876     155.59    
 51.286    -90.897     155.09    
 52.481    -90.918     154.58    
 53.703    -90.939     154.07    
 54.954    -90.961     153.55    
 56.234    -90.983     153.02    
 57.544    -91.006     152.48    
 58.884    -91.03      151.94    
 60.256    -91.054     151.38    
 61.66     -91.078     150.83    
 63.096    -91.103     150.26    
 64.565    -91.129     149.69    
 66.069    -91.155     149.11    
 67.608    -91.182     148.53    
 69.183    -91.21      147.94    
 70.795    -91.238     147.34    
 72.444    -91.267     146.74    
 74.131    -91.296     146.13    
 75.858    -91.326     145.52    
 77.625    -91.357     144.9     
 79.433    -91.389     144.27    
 81.283    -91.421     143.65    
 83.176    -91.454     143.02    
 85.114    -91.488     142.38    
 87.096    -91.523     141.74    
 89.125    -91.558     141.1     
 91.201    -91.595     140.45    
 93.325    -91.632     139.8     
 95.499    -91.67      139.15    
 97.724    -91.709     138.5     
 100.      -91.748     137.84    
 102.33    -91.789     137.18    
 104.71    -91.831     136.52    
 107.15    -91.873     135.86    
 109.65    -91.917     135.2     
 112.2     -91.962     134.55    
 114.82    -92.007     133.89    
 117.49    -92.054     133.23    
 120.23    -92.102     132.57    
 123.03    -92.151     131.91    
 125.89    -92.201     131.26    
 128.82    -92.252     130.6     
 131.83    -92.304     129.95    
 134.9     -92.358     129.3     
 138.04    -92.413     128.66    
 141.25    -92.469     128.02    
 144.54    -92.526     127.38    
 147.91    -92.585     126.74    
 151.36    -92.645     126.11    
 154.88    -92.707     125.49    
 158.49    -92.77      124.87    
 162.18    -92.834     124.25    
 165.96    -92.9       123.64    
 169.82    -92.968     123.03    
 173.78    -93.037     122.43    
 177.83    -93.107     121.84    
 181.97    -93.179     121.25    
 186.21    -93.253     120.67    
 190.55    -93.329     120.09    
 194.98    -93.406     119.52    
 199.53    -93.485     118.96    
 204.17    -93.566     118.4     
 208.93    -93.649     117.85    
 213.8     -93.734     117.31    
 218.78    -93.821     116.78    
 223.87    -93.91      116.25    
 229.09    -94.        115.73    
 234.42    -94.093     115.22    
 239.88    -94.188     114.71    
 245.47    -94.286     114.21    
 251.19    -94.385     113.72    
 257.04    -94.487     113.24    
 263.03    -94.591     112.77    
 269.15    -94.697     112.3     
 275.42    -94.806     111.84    
 281.84    -94.918     111.39    
 288.4     -95.032     110.94    
 295.12    -95.148     110.5     
 302.      -95.268     110.07    
 309.03    -95.39      109.65    
 316.23    -95.514     109.24    
 323.59    -95.642     108.83    
 331.13    -95.773     108.43    
 338.84    -95.906     108.04    
 346.74    -96.043     107.65    
 354.81    -96.183     107.27    
 363.08    -96.326     106.9     
 371.54    -96.472     106.54    
 380.19    -96.621     106.18    
 389.05    -96.774     105.83    
 398.11    -96.931     105.48    
 407.38    -97.091     105.15    
 416.87    -97.254     104.82    
 426.58    -97.421     104.49    
 436.52    -97.592     104.18    
 446.68    -97.767     103.86    
 457.09    -97.946     103.56    
 467.74    -98.129     103.26    
 478.63    -98.316     102.97    
 489.78    -98.507     102.68    
 501.19    -98.702     102.4     
 512.86    -98.902     102.13    
 524.81    -99.106     101.86    
 537.03    -99.315     101.59    
 549.54    -99.528     101.33    
 562.34    -99.746     101.08    
 575.44    -99.969     100.83    
 588.84    -100.2      100.59    
 602.56    -100.43     100.35    
 616.6     -100.67     100.12    
 630.96    -100.91     99.894    
 645.65    -101.16     99.671    
 660.69    -101.41     99.453    
 676.08    -101.67     99.24     
 691.83    -101.94     99.032    
 707.95    -102.21     98.827    
 724.44    -102.48     98.628    
 741.31    -102.76     98.432    
 758.58    -103.05     98.241    
 776.25    -103.35     98.054    
 794.33    -103.65     97.871    
 812.83    -103.95     97.692    
 831.76    -104.26     97.517    
 851.14    -104.58     97.345    
 870.96    -104.91     97.178    
 891.25    -105.24     97.014    
 912.01    -105.58     96.853    
 933.25    -105.93     96.696    
 954.99    -106.28     96.543    
 977.24    -106.64     96.393    
 1.E+3     -107.01     96.246    
 1.0233E+3 -107.38     96.102    
 1.0471E+3 -107.76     95.961    
 1.0715E+3 -108.15     95.824    
 1.0965E+3 -108.55     95.689    
 1.122E+3  -108.95     95.558    
 1.1482E+3 -109.36     95.429    
 1.1749E+3 -109.78     95.303    
 1.2023E+3 -110.21     95.18     
 1.2303E+3 -110.64     95.06     
 1.2589E+3 -111.08     94.942    
 1.2882E+3 -111.53     94.827    
 1.3183E+3 -111.99     94.714    
 1.349E+3  -112.45     94.604    
 1.3804E+3 -112.93     94.496    
 1.4125E+3 -113.41     94.39     
 1.4454E+3 -113.9      94.287    
 1.4791E+3 -114.39     94.186    
 1.5136E+3 -114.9      94.087    
 1.5488E+3 -115.41     93.99     
 1.5849E+3 -115.93     93.896    
 1.6218E+3 -116.46     93.803    
 1.6596E+3 -116.99     93.712    
 1.6982E+3 -117.54     93.624    
 1.7378E+3 -118.09     93.537    
 1.7783E+3 -118.65     93.452    
 1.8197E+3 -119.21     93.369    
 1.8621E+3 -119.78     93.288    
 1.9055E+3 -120.36     93.208    
 1.9498E+3 -120.95     93.13     
 1.9953E+3 -121.55     93.054    
 2.0417E+3 -122.15     92.979    
 2.0893E+3 -122.76     92.906    
 2.138E+3  -123.37     92.835    
 2.1878E+3 -123.99     92.764    
 2.2387E+3 -124.62     92.696    
 2.2909E+3 -125.25     92.629    
 2.3442E+3 -125.89     92.563    
 2.3988E+3 -126.53     92.498    
 2.4547E+3 -127.18     92.435    
 2.5119E+3 -127.83     92.373    
 2.5704E+3 -128.49     92.313    
 2.6303E+3 -129.15     92.253    
 2.6915E+3 -129.82     92.195    
 2.7542E+3 -130.49     92.138    
 2.8184E+3 -131.16     92.082    
 2.884E+3  -131.84     92.027    
 2.9512E+3 -132.51     91.974    
 3.02E+3   -133.2      91.921    
 3.0903E+3 -133.88     91.869    
 3.1623E+3 -134.57     91.819    
 3.2359E+3 -135.25     91.769    
 3.3113E+3 -135.94     91.72     
 3.3884E+3 -136.63     91.672    
 3.4674E+3 -137.32     91.625    
 3.5481E+3 -138.01     91.579    
 3.6308E+3 -138.7      91.534    
 3.7154E+3 -139.39     91.489    
 3.8019E+3 -140.08     91.445    
 3.8905E+3 -140.77     91.402    
 3.9811E+3 -141.45     91.36     
 4.0738E+3 -142.14     91.319    
 4.1687E+3 -142.82     91.278    
 4.2658E+3 -143.5      91.238    
 4.3652E+3 -144.17     91.198    
 4.4668E+3 -144.85     91.16     
 4.5709E+3 -145.52     91.121    
 4.6774E+3 -146.19     91.084    
 4.7863E+3 -146.85     91.047    
 4.8978E+3 -147.51     91.01     
 5.0119E+3 -148.17     90.974    
 5.1286E+3 -148.82     90.939    
 5.2481E+3 -149.47     90.904    
 5.3703E+3 -150.11     90.869    
 5.4954E+3 -150.75     90.835    
 5.6234E+3 -151.38     90.802    
 5.7544E+3 -152.       90.769    
 5.8884E+3 -152.63     90.736    
 6.0256E+3 -153.24     90.703    
 6.166E+3  -153.85     90.671    
 6.3096E+3 -154.46     90.64     
 6.4565E+3 -155.06     90.609    
 6.6069E+3 -155.65     90.578    
 6.7608E+3 -156.24     90.547    
 6.9183E+3 -156.82     90.517    
 7.0795E+3 -157.4      90.487    
 7.2444E+3 -157.97     90.457    
 7.4131E+3 -158.53     90.427    
 7.5858E+3 -159.09     90.398    
 7.7625E+3 -159.64     90.369    
 7.9433E+3 -160.18     90.34     
 8.1283E+3 -160.72     90.311    
 8.3176E+3 -161.26     90.282    
 8.5114E+3 -161.78     90.254    
 8.7096E+3 -162.31     90.225    
 8.9125E+3 -162.82     90.197    
 9.1201E+3 -163.33     90.169    
 9.3325E+3 -163.84     90.141    
 9.5499E+3 -164.33     90.113    
 9.7724E+3 -164.83     90.085    
 10.E+3    -165.32     90.057    
 10.233E+3 -165.8      90.03     
 10.471E+3 -166.28     90.002    
 10.715E+3 -166.75     89.974    
 10.965E+3 -167.22     89.946    
 11.22E+3  -167.68     89.918    
 11.482E+3 -168.14     89.891    
 11.749E+3 -168.59     89.863    
 12.023E+3 -169.04     89.835    
 12.303E+3 -169.49     89.807    
 12.589E+3 -169.93     89.778    
 12.882E+3 -170.36     89.75     
 13.183E+3 -170.8      89.722    
 13.49E+3  -171.22     89.693    
 13.804E+3 -171.65     89.664    
 14.125E+3 -172.07     89.635    
 14.454E+3 -172.49     89.606    
 14.791E+3 -172.91     89.577    
 15.136E+3 -173.32     89.547    
 15.488E+3 -173.73     89.518    
 15.849E+3 -174.14     89.488    
 16.218E+3 -174.54     89.457    
 16.596E+3 -174.94     89.427    
 16.982E+3 -175.34     89.396    
 17.378E+3 -175.74     89.365    
 17.783E+3 -176.14     89.333    
 18.197E+3 -176.53     89.301    
 18.621E+3 -176.93     89.269    
 19.055E+3 -177.32     89.236    
 19.498E+3 -177.71     89.203    
 19.953E+3 -178.1      89.17     
 20.417E+3 -178.49     89.136    
